Hora,Temperature,Wind_Speed,Wind_Direction,Humidity,Air_Density,Rain_Status,Casal_PMV,Casal_Temp,Circulacao_PMV,Circulacao_Temp,JanelaCasalNorte,PortaCasalOeste,JanelaCasalOeste
0.0,16.4,1.9,0.0,74.0,1.18674564357,0.0,-4.65072795432,19.5359850552,-1.4693443491,20.9264217149,0.490000009537,0.0,0.490000009537
1.0,16.1,2.2,0.0,76.0,1.1890553198,0.0,-4.89073929215,21.1846151634,-1.58186471009,22.4821611752,0.479999989271,0.0,0.490000009537
2.0,15.7,2.4,0.0,79.0,1.1904801071,0.0,-4.41994961177,20.926840585,-1.29059560927,22.5732978397,0.479999989271,0.0,0.490000009537
3.0,15.3,2.6,0.0,82.0,1.19193216436,0.0,-4.49856964126,20.977745363,-1.27979050239,22.5808756838,0.479999989271,0.0,0.490000009537
4.0,14.9,2.9,0.0,84.0,1.19482527955,0.0,-4.48981441855,20.4760524173,-1.28552328423,22.2076962145,0.479999989271,0.0,0.490000009537
5.0,14.5,3.1,0.0,88.0,1.19612619231,0.0,-4.65482090722,20.1518093959,-1.36804915117,21.9062184778,0.479999989271,0.0,0.490000009537
6.0,15.3,3.1,0.0,82.0,1.19314011047,0.0,-4.75610237784,20.3971934092,-1.42586740299,21.7026684828,0.479999989271,0.0,0.490000009537
7.0,16.2,3.1,0.0,77.0,1.1895195383,0.0,-4.69456990795,18.9793323138,-1.44911199165,20.159038614,0.490000009537,0.0,0.490000009537
8.0,17.0,3.1,180.0,72.0,1.18651444739,0.0,-5.1468807081,20.8232701005,-1.75658983286,21.0117152182,0.479999989271,0.0,0.490000009537
9.0,17.8,3.1,180.0,68.0,1.18336180654,0.0,-4.61508777077,21.1099834566,-1.59625369601,20.819014513,0.479999989271,0.0,0.490000009537
10.0,18.7,3.1,180.0,64.0,1.17978052276,0.0,-4.5221347145,21.303402831,-1.63151860695,20.9314774279,0.479999989271,0.0,0.490000009537
11.0,19.5,3.1,180.0,60.0,1.17560363374,0.0,-4.45061373118,21.6982994631,-1.59645066554,20.9024207876,0.479999989271,0.0,0.490000009537
12.0,20.3,3.1,180.0,56.0,1.17270905008,0.0,-4.3292654525,22.225149586,-1.5938954283,21.298661929,0.479999989271,0.0,0.490000009537
13.0,21.2,3.1,180.0,53.0,1.16911757183,0.0,-4.16045094021,22.7377090954,-1.50506338984,21.8653713505,0.490000009537,0.0,0.490000009537
14.0,22.0,3.1,180.0,50.0,1.16609488045,0.0,-3.99162820909,23.2834153291,-1.37648076509,22.4126902337,0.490000009537,0.0,0.490000009537
15.0,21.3,2.8,180.0,54.0,1.16832347714,0.0,-3.81301679358,22.9854109098,-1.25523015782,22.2327112797,0.479999989271,0.0,0.490000009537
16.0,20.7,2.6,180.0,57.0,1.16924202731,0.0,-3.86750109786,22.6696111437,-1.27840117499,21.8985608323,0.479999989271,0.0,0.490000009537
17.0,20.0,2.3,180.0,62.0,1.17134432183,0.0,-3.93657023272,22.307042844,-1.34038391278,21.5275216335,0.479999989271,0.0,0.490000009537
18.0,19.3,2.0,180.0,67.0,1.17354909808,0.0,-4.01312699521,21.9041500664,-1.41164662861,21.1083701586,0.479999989271,0.0,0.490000009537
19.0,18.7,1.8,180.0,72.0,1.17533265262,0.0,-4.10721506066,21.8687184769,-1.49711549299,21.8637102291,0.479999989271,0.0,0.490000009537
20.0,18.0,1.5,270.0,77.0,1.17772183568,0.0,-4.09589958487,21.2334848261,-1.35283193518,22.0297083621,0.479999989271,0.0,0.490000009537
21.0,17.9,1.6,270.0,77.0,1.17824586609,0.0,-4.26801883063,21.0494752366,-1.32778130035,21.6994194322,0.479999989271,0.0,0.490000009537
22.0,17.8,1.7,270.0,77.0,1.17876959948,0.0,-4.33180783097,20.9967800834,-1.39252487213,21.6623544637,0.479999989271,0.0,0.490000009537
23.0,17.7,1.8,270.0,77.0,1.18049101601,0.0,-4.3581376409,20.9181868092,-1.4082436859,21.6184694918,0.479999989271,0.0,0.490000009537
0.0,17.6,1.9,270.0,77.0,1.18101457565,0.0,-4.3944780135,20.8423656488,-1.42626909736,21.5743149013,0.479999989271,0.0,0.490000009537
1.0,17.4,2.0,270.0,77.0,1.18206083111,0.0,-4.43129697617,20.5806519967,-1.44444121424,22.2621008087,0.479999989271,0.0,0.490000009537
2.0,17.3,2.1,270.0,77.0,1.18258353352,0.0,-4.52742860431,20.5423103792,-1.32031551631,21.7811595372,0.479999989271,0.0,0.490000009537
3.0,17.2,2.2,270.0,77.0,1.18430599606,0.0,-4.55624254805,20.4558436878,-1.41974540984,21.7357386388,0.479999989271,0.0,0.490000009537
4.0,17.1,2.3,270.0,77.0,1.18482855406,0.0,-4.59879649405,21.1077172454,-1.43758101272,22.0988387512,0.479999989271,0.0,0.490000009537
5.0,17.0,2.4,270.0,77.0,1.18535083639,0.0,-4.39897317635,21.8606188134,-1.37357737774,22.8855133733,0.479999989271,0.0,0.490000009537
6.0,18.0,2.3,270.0,73.0,1.1811034955,0.0,-4.18576702077,21.9344775849,-1.20937698571,22.7263356186,0.479999989271,0.0,0.490000009537
7.0,19.0,2.2,270.0,68.0,1.17720895969,0.0,-4.15550497796,21.3404452146,-1.22043114525,20.7874576949,0.479999989271,0.0,0.490000009537
8.0,20.0,2.1,90.0,64.0,1.17197693047,0.0,-4.32732500388,22.2853850206,-1.58491020532,21.1298423419,0.490000009537,0.0,0.490000009537
9.0,21.0,2.0,90.0,60.0,1.16804280174,0.0,-4.03662972668,22.8526083008,-1.50608043835,22.3333946444,0.490000009537,0.0,0.490000009537
10.0,22.0,1.9,90.0,57.0,1.16390934179,0.0,-3.85288589063,23.4419854991,-1.25206776901,23.4039056226,0.490000009537,0.0,0.490000009537
11.0,23.0,1.8,90.0,53.0,1.15901415221,0.0,-3.64923370381,23.8002443497,-1.00599986136,24.2804014202,0.490000009537,0.0,0.490000009537
12.0,24.0,1.7,90.0,50.0,1.15507819642,0.0,-3.51164205231,24.1903509506,-0.789345380415,24.4140506973,0.490000009537,0.0,0.490000009537
13.0,25.0,1.6,90.0,47.0,1.15123947612,0.0,-3.35883233001,24.6102104342,-0.717791628404,24.72028296,0.490000009537,0.0,0.490000009537
14.0,26.0,1.5,90.0,45.0,1.14594825246,0.0,-3.19583865003,25.0424839636,-0.614897581294,24.6211352536,0.490000009537,0.0,0.490000009537
15.0,25.2,1.3,90.0,48.0,1.14871682953,0.0,-3.02302330157,24.9568586918,-0.598305689878,24.9532702788,0.490000009537,0.0,0.490000009537
16.0,24.3,1.2,90.0,52.0,1.15171219482,0.0,-3.00242794694,24.8118269542,-0.505352131651,24.5027583802,0.490000009537,0.0,0.490000009537
17.0,23.5,1.0,90.0,55.0,1.15466907652,0.0,-3.00269990924,24.5723382909,-0.575466541077,24.095684182,0.490000009537,0.0,0.490000009537
18.0,22.7,0.8,90.0,59.0,1.15737755359,0.0,-3.04192321266,24.260281129,-0.654789363286,23.566973436,0.490000009537,0.0,0.490000009537
19.0,21.8,0.7,90.0,64.0,1.15921020859,0.0,-3.10309507694,24.025531572,-0.759245472768,23.8058608443,0.479999989271,0.0,0.490000009537
20.0,21.0,0.5,140.0,69.0,1.16183712158,0.0,-3.13705299567,23.6846866955,-0.712734457784,23.5807207314,0.479999989271,0.0,0.490000009537
21.0,20.4,0.5,140.0,71.0,1.16438213633,0.0,-3.20639933193,22.9692180403,-0.757021801055,23.5392487635,0.479999989271,0.0,0.490000009537
22.0,19.8,0.5,140.0,73.0,1.1681449117,0.0,-3.4123557089,22.650769838,-0.769111658865,23.3639084189,0.479999989271,0.0,0.490000009537
23.0,19.2,0.6,140.0,76.0,1.17048268975,0.0,-3.51489283212,22.3354783093,-0.81376687326,23.0586952494,0.479999989271,0.0,0.490000009537
0.0,18.6,0.6,140.0,79.0,1.17286498826,0.0,-3.61482190289,21.9646551252,-0.882981193753,22.7739331462,0.479999989271,0.0,0.490000009537
1.0,17.9,0.6,140.0,82.0,1.17701797951,0.0,-3.73585542037,21.5153434426,-0.949436483716,22.4174232734,0.479999989271,0.0,0.490000009537
2.0,17.3,0.6,140.0,85.0,1.17948837789,0.0,-3.89141492283,21.1397065334,-1.03559776005,22.1105982673,0.479999989271,0.0,0.490000009537
3.0,16.7,0.7,140.0,87.0,1.18222615513,0.0,-4.02756135904,20.5749316888,-1.11269938054,22.3548770579,0.479999989271,0.0,0.490000009537
4.0,16.1,0.7,140.0,91.0,1.18574851234,0.0,-4.23308838737,20.1898120194,-1.07787757419,22.0483103986,0.479999989271,0.0,0.490000009537
5.0,15.5,0.7,140.0,94.0,1.18833281508,0.0,-4.37459250372,19.6491794997,-1.15565990396,22.1460489718,0.479999989271,0.0,0.490000009537
6.0,17.0,0.8,140.0,86.0,1.18205546787,0.0,-4.56858588344,20.652635494,-1.13523246847,22.0725253873,0.479999989271,0.0,0.490000009537
7.0,18.5,0.9,140.0,79.0,1.17458816384,0.0,-4.2789826705,21.5604611023,-1.143344799,20.9913096932,0.479999989271,0.0,0.490000009537
8.0,20.0,1.0,140.0,73.0,1.16828648257,0.0,-4.00135669362,22.4441546428,-1.34597668646,21.5886591928,0.479999989271,0.0,0.490000009537
9.0,21.5,1.1,140.0,67.0,1.16220500892,0.0,-3.71980574972,23.2420482463,-1.21148032634,22.5611935837,0.479999989271,0.0,0.490000009537
10.0,23.0,1.2,140.0,62.0,1.15486167784,0.0,-3.46093606857,24.1724545883,-0.994923523288,23.5287587529,0.490000009537,0.0,0.490000009537
11.0,24.5,1.2,140.0,57.0,1.1489150147,0.0,-3.14907063162,24.8395110131,-0.76308521292,24.5803669862,0.490000009537,0.0,0.490000009537
12.0,26.0,1.3,140.0,53.0,1.14281451192,0.0,-2.90770570651,25.4040076798,-0.508891506087,25.4110762227,0.490000009537,0.0,0.490000009537
13.0,27.5,1.4,140.0,49.0,1.13575103428,0.0,-2.68838935163,26.0525541164,-0.292374401286,25.3980131056,0.490000009537,0.0,0.490000009537
14.0,29.0,1.5,230.0,45.0,1.13006924994,0.0,-2.43199599493,26.6530394994,-0.247945726322,25.574798203,0.479999989271,0.0,0.490000009537
15.0,28.0,1.3,230.0,49.0,1.13324843187,0.0,-2.20676952517,26.6078430557,-0.182380620851,25.8553040303,0.479999989271,0.0,0.490000009537
16.0,27.0,1.2,230.0,52.0,1.13700406339,0.0,-2.15912453736,26.4358635597,-0.100185074136,25.9515022499,0.479999989271,0.0,0.490000009537
17.0,26.0,1.0,230.0,56.0,1.14047461893,0.0,-2.16729717308,26.2143725046,-0.063878312384,25.9686666445,0.479999989271,0.0,0.490000009537
18.0,25.0,0.8,230.0,60.0,1.14408737929,0.0,-2.19919278119,25.9537250154,-0.047289032665,25.5539238468,0.479999989271,0.0,0.490000009537
19.0,24.0,0.7,230.0,64.0,1.14783261802,0.0,-2.24260068975,25.6915120655,-0.121314022051,25.1322129604,0.479999989271,0.0,0.490000009537
20.0,23.0,0.5,50.0,69.0,1.15137052241,0.0,-2.29128521654,25.368485406,-0.207129030736,24.9190070004,0.479999989271,0.0,0.479999989271
21.0,22.4,0.5,50.0,71.0,1.15388622415,0.0,-2.35452609308,24.664412735,-0.256283964926,24.8972394685,0.479999989271,0.0,0.479999989271
22.0,21.8,0.5,50.0,73.0,1.15761377202,0.0,-2.55348921876,24.3449167544,-0.265452750219,24.5917820872,0.479999989271,0.0,0.479999989271
23.0,21.2,0.6,50.0,75.0,1.16019161282,0.0,-2.65045710175,23.9420985631,-0.336527247855,24.4269348741,0.479999989271,0.0,0.479999989271
0.0,20.6,0.6,50.0,78.0,1.16369567553,0.0,-2.77467926485,23.6360864896,-0.381110893343,24.1013171664,0.479999989271,0.0,0.490000009537
1.0,19.9,0.6,50.0,80.0,1.16687601664,0.0,-2.87266643477,23.1825792972,-0.456922961117,23.7873715802,0.479999989271,0.0,0.490000009537
2.0,19.3,0.6,50.0,83.0,1.17047180182,0.0,-3.0296972819,22.8162822009,-0.535854976894,23.5280312404,0.479999989271,0.0,0.490000009537
3.0,18.7,0.7,50.0,85.0,1.17317882712,0.0,-3.15813366003,22.3688457342,-0.603880983929,23.3814628509,0.479999989271,0.0,0.490000009537
4.0,18.1,0.7,50.0,88.0,1.17685649709,0.0,-3.32167942885,22.0327416238,-0.651812137766,22.9587601673,0.479999989271,0.0,0.490000009537
5.0,17.5,0.7,50.0,91.0,1.17937958809,0.0,-3.45249531042,21.6155048805,-0.75551691978,22.6669106304,0.479999989271,0.0,0.490000009537
6.0,19.0,1.0,50.0,84.0,1.17182239676,0.0,-3.60564555386,22.6112546633,-0.819595738131,22.6503515974,0.479999989271,0.0,0.490000009537
7.0,20.5,1.2,50.0,79.0,1.16513042579,0.0,-3.31131376252,23.2370379357,-0.813358614783,22.1467200542,0.479999989271,0.0,0.490000009537
8.0,22.0,1.5,180.0,73.0,1.15891382483,0.0,-3.10255778101,24.1999636033,-0.897387553874,23.4484495208,0.479999989271,0.0,0.490000009537
9.0,23.5,1.8,180.0,68.0,1.15142069476,0.0,-2.80104571417,25.0437301301,-0.629634515291,24.4127153574,0.479999989271,0.0,0.490000009537
10.0,25.0,2.0,180.0,64.0,1.14494319508,0.0,-2.51563995134,25.9665344557,-0.403369138961,25.2323137286,0.479999989271,0.0,0.490000009537
11.0,26.5,2.3,180.0,60.0,1.13746703655,0.0,-2.19655804459,26.3077820221,-0.195625322879,25.7206858715,0.479999989271,0.0,0.490000009537
12.0,28.0,2.6,180.0,56.0,1.13134221428,0.0,-2.03895887199,26.7874444155,-0.0483230073774,25.8992319619,0.479999989271,0.0,0.490000009537
13.0,29.5,2.8,180.0,52.0,1.1254206008,0.0,-1.83898211788,27.1890698122,0.0160529901373,26.6280162371,0.490000009537,0.0,0.490000009537
14.0,31.0,3.1,140.0,49.0,1.11806409533,0.0,-1.68586167668,29.0195810911,0.184686703554,31.7471420462,0.490000009537,0.0,0.490000009537
15.0,30.0,3.4,140.0,51.0,1.12333304745,0.0,-1.06951466079,29.1029607334,1.29401267227,31.6444683843,0.479999989271,0.0,0.490000009537
16.0,29.0,3.8,140.0,52.0,1.12798684554,0.0,-0.973922377453,29.2533304043,1.33882068688,31.3047078391,0.479999989271,0.0,0.490000009537
17.0,28.0,4.1,140.0,55.0,1.13177981751,0.0,-0.893287167582,28.9366502623,1.28883095042,29.9333370553,0.479999989271,0.0,0.490000009537
18.0,27.0,4.4,140.0,57.0,1.13609434882,0.0,-0.960964678849,28.3140247207,1.02536485501,28.6387638745,0.479999989271,0.0,0.490000009537
19.0,26.0,4.8,140.0,59.0,1.14162894679,0.0,-1.12952750654,27.5799441554,0.758023953788,26.9851598596,0.479999989271,0.0,0.490000009537
20.0,25.0,5.1,90.0,61.0,1.1460543035,0.0,-1.34042812508,27.0642077606,0.412923116719,25.8174661378,0.479999989271,0.0,0.479999989271
21.0,24.2,4.8,90.0,63.0,1.14948780551,0.0,-1.49702722753,26.3638998892,0.156128315103,25.1522647677,0.479999989271,0.0,0.479999989271
22.0,23.3,4.6,90.0,65.0,1.15465970037,0.0,-1.70255965598,25.6686487386,0.00424476618275,24.2406716351,0.479999989271,0.0,0.479999989271
23.0,22.5,4.3,90.0,68.0,1.15785723945,0.0,-1.92589383557,25.5510882245,-0.209587215348,23.9098081558,0.479999989271,0.0,0.479999989271
0.0,22.2,3.8,90.0,72.0,1.15462636059,0.0,-1.97392356167,25.2955868169,-0.30602746656,23.4911805534,0.479999989271,0.0,0.490000009537
1.0,22.0,3.4,90.0,76.0,1.15561611471,0.0,-2.04505068747,25.4147328025,-0.394368978569,23.4881092765,0.479999989271,0.0,0.490000009537
2.0,21.7,2.9,90.0,81.0,1.15568879407,0.0,-2.00585342915,25.4924511234,-0.409858778623,23.3875758535,0.479999989271,0.0,0.479999989271
3.0,21.4,2.4,90.0,85.0,1.15611223323,0.0,-1.95661164648,25.5512020475,-0.422240164418,23.5582967798,0.479999989271,0.0,0.479999989271
4.0,21.0,2.6,90.0,88.0,1.158607397,0.0,-1.91496950966,25.3431268761,-0.396751904704,23.2425515482,0.479999989271,0.0,0.479999989271
5.0,20.6,2.9,90.0,91.0,1.15995300826,0.0,-1.97446494397,25.013603005,-0.46924848137,22.759010235,0.479999989271,0.0,0.479999989271
6.0,21.2,2.6,90.0,89.0,1.15601802743,0.0,-2.07566735803,25.2917415326,-0.568339074857,23.8938086695,0.479999989271,0.0,0.479999989271
7.0,21.8,2.4,90.0,87.0,1.15329280826,0.0,-1.99349131268,25.1228115041,-0.355436800838,22.9182912246,0.479999989271,0.0,0.479999989271
8.0,22.4,2.1,140.0,85.0,1.1505923425,0.0,-2.0092653798,25.4982885704,-0.512006171446,23.7264223575,0.479999989271,0.0,0.490000009537
9.0,23.0,1.8,140.0,83.0,1.14791782887,0.0,-1.8894777436,25.7432066969,-0.353782751843,24.3495761557,0.479999989271,0.0,0.490000009537
10.0,23.6,1.6,140.0,82.0,1.14492835051,0.0,-1.79859783101,25.9623638468,-0.205889765879,24.9273969145,0.479999989271,0.0,0.490000009537
11.0,24.2,1.3,140.0,80.0,1.14229769046,0.0,-1.71202767,26.2256734373,-0.0665343996937,25.2242770288,0.479999989271,0.0,0.490000009537
12.0,24.8,1.0,140.0,78.0,1.13969654122,0.0,-1.60626131734,26.5748079977,0.0241445832011,25.538812942,0.479999989271,0.0,0.490000009537
13.0,25.4,0.8,140.0,77.0,1.13674751878,0.0,-1.4756134767,27.0101072479,0.122355320655,25.9513086666,0.479999989271,0.0,0.490000009537
14.0,26.0,0.5,140.0,75.0,1.13303198513,0.0,-1.32005988181,27.2758383809,0.226745712564,26.4310817711,0.479999989271,0.0,0.490000009537
15.0,25.6,0.6,140.0,77.0,1.13447195553,0.0,-1.21254779815,27.2207238655,0.332336847077,26.1805487167,0.479999989271,0.0,0.490000009537
16.0,25.3,0.7,140.0,80.0,1.13500388809,0.0,-1.20196607047,27.0222303466,0.29766127888,26.1668032317,0.479999989271,0.0,0.490000009537
17.0,24.9,0.7,140.0,82.0,1.13650101661,0.0,-1.22853412308,26.7691356713,0.320837877932,25.8353919373,0.479999989271,0.0,0.490000009537
18.0,24.5,0.8,140.0,85.0,1.13766227319,0.0,-1.28598883557,26.5427600245,0.270926824262,25.6601061528,0.479999989271,0.0,0.490000009537
19.0,24.2,0.9,140.0,87.0,1.13747597501,0.0,-1.33195267473,26.692631001,0.234300348553,25.8182195212,0.479999989271,0.0,0.479999989271
20.0,23.8,1.0,140.0,90.0,1.13870217507,0.0,-1.26840748849,26.631452462,0.255283618901,25.7746809715,0.479999989271,0.0,0.479999989271
21.0,23.8,1.1,140.0,89.0,1.13904825461,0.0,-1.26411933753,26.4482111287,0.240802695392,26.0607004845,0.479999989271,0.0,0.479999989271
22.0,23.8,1.2,140.0,87.0,1.13974041369,0.0,-1.31970214056,26.4662872053,0.294304467359,26.0950675111,0.479999989271,0.0,0.479999989271
23.0,23.8,1.3,140.0,85.0,1.14043257276,0.0,-1.32928645665,26.5625170589,0.291260920516,26.1255686506,0.479999989271,0.0,0.479999989271
0.0,23.8,1.4,140.0,84.0,1.1407786523,0.0,-1.31849731377,26.6751332715,0.272528989646,26.1880023205,0.479999989271,0.0,0.490000009537
1.0,23.8,1.4,140.0,82.0,1.14147081138,0.0,-1.29316479486,26.6269528958,0.267565749285,26.205766201,0.479999989271,0.0,0.490000009537
2.0,23.8,1.5,140.0,80.0,1.14216297046,0.0,-1.32271434257,26.6516884981,0.264667966738,26.1665215726,0.479999989271,0.0,0.490000009537
3.0,23.8,1.6,140.0,79.0,1.14250904999,0.0,-1.33575875239,26.8370356901,0.242265076899,26.20342751,0.479999989271,0.0,0.479999989271
4.0,23.8,1.7,140.0,77.0,1.14320120907,0.0,-1.28977974141,27.0970365437,0.22967606751,26.0703216015,0.479999989271,0.0,0.479999989271
5.0,23.8,1.8,140.0,76.0,1.14354728861,0.0,-1.23983416147,27.093338051,0.159093751571,25.5369918334,0.479999989271,0.0,0.479999989271
6.0,24.3,1.9,140.0,73.0,1.14189280745,0.0,-1.25790129662,26.8266347473,0.0734662217201,25.2911517172,0.479999989271,0.0,0.490000009537
7.0,24.9,2.0,140.0,69.0,1.14011975789,0.0,-1.35029291354,27.1059905492,0.0265981717263,25.492101217,0.479999989271,0.0,0.490000009537
8.0,25.4,2.1,320.0,66.0,1.13857999632,0.0,-1.26090457016,26.9256978044,0.0999061854248,26.0393310864,0.479999989271,0.0,0.490000009537
9.0,25.9,2.2,320.0,63.0,1.13709359254,0.0,-1.30801277768,27.1407912787,0.224288298952,26.1311641261,0.479999989271,0.0,0.490000009537
10.0,26.5,2.3,320.0,60.0,1.13397864621,0.0,-1.24326651885,27.1723138157,0.255570948805,26.7107549863,0.479999989271,0.0,0.490000009537
11.0,27.0,2.3,320.0,58.0,1.13219765468,0.0,-1.22438731203,27.5664706581,0.387853485528,26.9176616466,0.479999989271,0.0,0.490000009537
12.0,27.5,2.4,320.0,55.0,1.13087885593,0.0,-1.08835856029,27.9679403618,0.454703501521,27.1500249934,0.479999989271,0.0,0.490000009537
13.0,28.1,2.5,320.0,52.0,1.12911373556,0.0,-0.965613563028,28.4263865768,0.515071693939,27.3061319544,0.479999989271,0.0,0.490000009537
14.0,28.6,2.6,270.0,50.0,1.12747370195,0.0,-0.814088495294,28.8900661866,0.556272840345,27.6762396109,0.479999989271,0.0,0.490000009537
15.0,27.9,2.4,270.0,53.0,1.12969395045,0.0,-0.654335550016,28.557536002,0.64332606564,27.8808888964,0.479999989271,0.0,0.490000009537
16.0,27.3,2.2,270.0,55.0,1.13190436517,0.0,-0.719870327127,28.3204760378,0.699387619646,27.6898673755,0.479999989271,0.0,0.490000009537
17.0,26.6,2.0,270.0,57.0,1.13467266394,0.0,-0.768247647255,27.9347973987,0.670321591802,27.4556654757,0.479999989271,0.0,0.490000009537
18.0,25.9,1.9,270.0,60.0,1.13709707142,0.0,-0.874417389163,27.9027151876,0.618313772452,26.5384983295,0.479999989271,0.0,0.490000009537
19.0,25.3,1.7,270.0,63.0,1.13907226856,0.0,-0.868620224105,27.6671835506,0.434979256553,26.4944714154,0.479999989271,0.0,0.490000009537
20.0,24.6,1.5,320.0,66.0,1.14163636434,0.0,-0.91440344175,27.1865754159,0.420207485449,26.1669767576,0.479999989271,0.0,0.490000009537
21.0,24.1,1.7,320.0,70.0,1.14285510263,0.0,-1.04205936392,26.5728637168,0.344457308826,26.4222024026,0.479999989271,0.0,0.490000009537
22.0,23.5,2.0,320.0,75.0,1.14551544466,0.0,-1.20885983589,26.1149686674,0.395325357447,26.1454848285,0.479999989271,0.0,0.490000009537
23.0,23.0,2.2,320.0,81.0,1.14622606961,0.0,-1.33179644066,25.74198821,0.338504462115,25.8860290413,0.479999989271,0.0,0.490000009537
0.0,22.4,2.4,320.0,86.0,1.14555714567,0.0,-1.42276293001,25.267092083,0.287953685184,25.3561043309,0.479999989271,0.0,0.490000009537
1.0,22.1,2.7,320.0,85.0,1.14871305382,0.0,-1.5608135596,24.9081823529,0.196875310307,25.0538679966,0.479999989271,0.0,0.490000009537
2.0,21.7,2.9,320.0,85.0,1.15091615929,0.0,-1.71730175427,24.5375282961,0.112093894203,24.7551390693,0.479999989271,0.0,0.490000009537
