Hora,Temperature,Wind_Speed,Wind_Direction,Humidity,Air_Density,Rain_Status,Casal_PMV,Casal_Temp,Circulacao_PMV,Circulacao_Temp,JanelaCasalNorte,PortaCasalOeste,JanelaCasalOeste
0.0,16.4,1.9,0.0,74.0,1.18674564357,0.0,-4.65072795432,19.5359850552,-1.4693443491,20.9264217149,0.449999988079,0.0,0.449999988079
1.0,16.1,2.2,0.0,76.0,1.1890553198,0.0,-4.89073929215,21.2727020476,-1.58186471009,22.4896719155,0.449999988079,0.0,0.439999997616
2.0,15.7,2.4,0.0,79.0,1.1904801071,0.0,-4.39342409564,21.0569921704,-1.28895726797,22.5849706456,0.439999997616,0.0,0.439999997616
3.0,15.3,2.6,0.0,82.0,1.19193216436,0.0,-4.4583221598,21.0731135464,-1.2772318564,22.5941745338,0.439999997616,0.0,0.439999997616
4.0,14.9,2.9,0.0,84.0,1.19482527955,0.0,-4.4592644128,20.618739204,-1.28254193958,22.2325606546,0.439999997616,0.0,0.439999997616
5.0,14.5,3.1,0.0,88.0,1.19612619231,0.0,-4.60910793178,20.2942335871,-1.36268056514,21.9320303416,0.439999997616,0.0,0.439999997616
6.0,15.3,3.1,0.0,82.0,1.19314011047,0.0,-4.70935536602,20.5307499116,-1.42019326142,21.7295167358,0.439999997616,0.0,0.439999997616
7.0,16.2,3.1,0.0,77.0,1.1895195383,0.0,-4.64959910468,19.0503773767,-1.44309994198,20.2106543776,0.449999988079,0.0,0.449999988079
8.0,17.0,3.1,180.0,72.0,1.18651444739,0.0,-5.11982327465,20.9262971083,-1.74560734293,21.0240620265,0.449999988079,0.0,0.439999997616
9.0,17.8,3.1,180.0,68.0,1.18336180654,0.0,-4.57809890036,21.1904752835,-1.59256356715,20.8282079475,0.449999988079,0.0,0.439999997616
10.0,18.7,3.1,180.0,64.0,1.17978052276,0.0,-4.49154948956,21.3677033344,-1.62864814319,20.9371069633,0.449999988079,0.0,0.439999997616
11.0,19.5,3.1,180.0,60.0,1.17560363374,0.0,-4.42505472098,21.7604504841,-1.59440078018,20.9046814051,0.449999988079,0.0,0.439999997616
12.0,20.3,3.1,180.0,56.0,1.17270905008,0.0,-4.30436977366,22.2814112722,-1.59254059647,21.3009672402,0.449999988079,0.0,0.439999997616
13.0,21.2,3.1,180.0,53.0,1.16911757183,0.0,-4.13738014847,22.7848318097,-1.50374382505,21.8676234702,0.449999988079,0.0,0.439999997616
14.0,22.0,3.1,180.0,50.0,1.16609488045,0.0,-3.97141038477,23.3208745163,-1.37520186789,22.4145106569,0.449999988079,0.0,0.439999997616
15.0,21.3,2.8,180.0,54.0,1.16832347714,0.0,-3.79569999671,23.0452277605,-1.25406243803,22.2339817123,0.449999988079,0.0,0.439999997616
16.0,20.7,2.6,180.0,57.0,1.16924202731,0.0,-3.84417829214,22.7487304192,-1.27737391179,21.9005235858,0.449999988079,0.0,0.439999997616
17.0,20.0,2.3,180.0,62.0,1.17134432183,0.0,-3.90756325213,22.3734918895,-1.33923569179,21.5286898456,0.449999988079,0.0,0.439999997616
18.0,19.3,2.0,180.0,67.0,1.17354909808,0.0,-3.98775319302,21.976530301,-1.41068832558,21.1096523771,0.449999988079,0.0,0.439999997616
19.0,18.7,1.8,180.0,72.0,1.17533265262,0.0,-4.07977317758,21.9542671681,-1.49614342211,21.8658476527,0.449999988079,0.0,0.430000007153
20.0,18.0,1.5,270.0,77.0,1.17772183568,0.0,-4.06437826963,21.3199694512,-1.35169002253,22.0431707855,0.449999988079,0.0,0.430000007153
21.0,17.9,1.6,270.0,77.0,1.17824586609,0.0,-4.23573073961,21.1449954433,-1.32455616708,21.7265758052,0.449999988079,0.0,0.430000007153
22.0,17.8,1.7,270.0,77.0,1.17876959948,0.0,-4.29640644091,21.0931668828,-1.38646328589,21.6892944759,0.449999988079,0.0,0.430000007153
23.0,17.7,1.8,270.0,77.0,1.18049101601,0.0,-4.32206390819,21.0160300015,-1.40204412095,21.6458564738,0.449999988079,0.0,0.430000007153
0.0,17.6,1.9,270.0,77.0,1.18101457565,0.0,-4.35761054272,20.9417024242,-1.41984969438,21.6021747284,0.449999988079,0.0,0.439999997616
1.0,17.4,2.0,270.0,77.0,1.18206083111,0.0,-4.39363853859,20.6764221416,-1.43781917687,22.318497061,0.449999988079,0.0,0.439999997616
2.0,17.3,2.1,270.0,77.0,1.18258353352,0.0,-4.49042783913,20.6331341585,-1.30824605758,21.8229392434,0.449999988079,0.0,0.439999997616
3.0,17.2,2.2,270.0,77.0,1.18430599606,0.0,-4.52051318913,20.5479011578,-1.41008119813,21.7777981966,0.449999988079,0.0,0.439999997616
4.0,17.1,2.3,270.0,77.0,1.18482855406,0.0,-4.56248799259,21.6676192704,-1.42770765519,22.542587371,0.449999988079,0.0,0.439999997616
5.0,17.0,2.4,270.0,77.0,1.18535083639,0.0,-4.23274898192,21.9545938912,-1.28871583188,22.7969946309,0.449999988079,0.0,0.439999997616
6.0,18.0,2.3,270.0,73.0,1.1811034955,0.0,-4.14883701044,21.9985373741,-1.22403024131,22.732582379,0.449999988079,0.0,0.439999997616
7.0,19.0,2.2,270.0,68.0,1.17720895969,0.0,-4.12738840545,21.4159243928,-1.21675055002,20.7968845702,0.449999988079,0.0,0.439999997616
8.0,20.0,2.1,90.0,64.0,1.17197693047,0.0,-4.29589913647,22.3481694727,-1.58103519455,21.1350528793,0.449999988079,0.0,0.439999997616
9.0,21.0,2.0,90.0,60.0,1.16804280174,0.0,-4.00916538498,22.9187013034,-1.50316190005,22.3379800718,0.449999988079,0.0,0.439999997616
10.0,22.0,1.9,90.0,57.0,1.16390934179,0.0,-3.82461197372,23.4790482889,-1.24933775984,23.4075245873,0.449999988079,0.0,0.439999997616
11.0,23.0,1.8,90.0,53.0,1.15901415221,0.0,-3.62968980605,23.8410907417,-1.00354930172,24.2693802587,0.449999988079,0.0,0.439999997616
12.0,24.0,1.7,90.0,50.0,1.15507819642,0.0,-3.49126745454,24.2151612824,-0.790484898412,24.4176019639,0.449999988079,0.0,0.439999997616
13.0,25.0,1.6,90.0,47.0,1.15123947612,0.0,-3.34332290736,24.6270895587,-0.71549779039,24.7241372831,0.449999988079,0.0,0.439999997616
14.0,26.0,1.5,90.0,45.0,1.14594825246,0.0,-3.18299536706,25.0481063613,-0.612627597369,24.6337918007,0.449999988079,0.0,0.439999997616
15.0,25.2,1.3,90.0,48.0,1.14871682953,0.0,-3.01414079228,24.9741093636,-0.594280833086,24.9613718212,0.449999988079,0.0,0.439999997616
16.0,24.3,1.2,90.0,52.0,1.15171219482,0.0,-2.99029296212,24.8411561858,-0.502208554485,24.5087131381,0.449999988079,0.0,0.439999997616
17.0,23.5,1.0,90.0,55.0,1.15466907652,0.0,-2.98721469766,24.616385597,-0.572806529734,24.099455397,0.449999988079,0.0,0.439999997616
18.0,22.7,0.8,90.0,59.0,1.15737755359,0.0,-3.02211728458,24.3224857166,-0.652584316845,23.5710553527,0.449999988079,0.0,0.439999997616
19.0,21.8,0.7,90.0,64.0,1.15921020859,0.0,-3.07810008192,24.112189885,-0.757032030005,23.8098226805,0.449999988079,0.0,0.430000007153
20.0,21.0,0.5,140.0,69.0,1.16183712158,0.0,-3.10476144594,23.787915368,-0.710561253966,23.5850476485,0.449999988079,0.0,0.430000007153
21.0,20.4,0.5,140.0,71.0,1.16438213633,0.0,-3.1688513459,23.0387543475,-0.754807358075,23.5616303059,0.449999988079,0.0,0.430000007153
22.0,19.8,0.5,140.0,73.0,1.1681449117,0.0,-3.3843386445,22.7423060898,-0.763417662933,23.3903414376,0.449999988079,0.0,0.430000007153
23.0,19.2,0.6,140.0,76.0,1.17048268975,0.0,-3.48014476886,22.4288330069,-0.807113287987,23.087180241,0.449999988079,0.0,0.430000007153
0.0,18.6,0.6,140.0,79.0,1.17286498826,0.0,-3.57918832496,22.0643457515,-0.875843723113,22.8047062582,0.449999988079,0.0,0.439999997616
1.0,17.9,0.6,140.0,82.0,1.17701797951,0.0,-3.69793525549,21.6215858522,-0.941738545925,22.450526667,0.449999988079,0.0,0.439999997616
2.0,17.3,0.6,140.0,85.0,1.17948837789,0.0,-3.85104656262,21.2452267664,-1.02730278862,22.1429983472,0.449999988079,0.0,0.439999997616
3.0,16.7,0.7,140.0,87.0,1.18222615513,0.0,-3.98705460156,20.6828670976,-1.10445986389,22.4069400791,0.449999988079,0.0,0.430000007153
4.0,16.1,0.7,140.0,91.0,1.18574851234,0.0,-4.19141395333,20.3017810926,-1.06541102102,22.1049756937,0.449999988079,0.0,0.430000007153
5.0,15.5,0.7,140.0,94.0,1.18833281508,0.0,-4.33117266346,19.7700721381,-1.14333372238,22.226988361,0.449999988079,0.0,0.430000007153
6.0,17.0,0.8,140.0,86.0,1.18205546787,0.0,-4.52185660337,20.7573825286,-1.11655535187,22.0968367003,0.449999988079,0.0,0.439999997616
7.0,18.5,0.9,140.0,79.0,1.17458816384,0.0,-4.23684156501,21.6578640027,-1.13586593507,21.0030209273,0.449999988079,0.0,0.439999997616
8.0,20.0,1.0,140.0,73.0,1.16828648257,0.0,-3.96140996882,22.523252506,-1.34120720496,21.5948133556,0.449999988079,0.0,0.439999997616
9.0,21.5,1.1,140.0,67.0,1.16220500892,0.0,-3.68540058588,23.3075932687,-1.2079054487,22.5686696331,0.449999988079,0.0,0.439999997616
10.0,23.0,1.2,140.0,62.0,1.15486167784,0.0,-3.43084617798,24.2330713516,-0.991235876546,23.5335415129,0.449999988079,0.0,0.439999997616
11.0,24.5,1.2,140.0,57.0,1.1489150147,0.0,-3.12064237993,24.8694086302,-0.759966209854,24.582480017,0.449999988079,0.0,0.439999997616
12.0,26.0,1.3,140.0,53.0,1.14281451192,0.0,-2.88872814056,25.4203127714,-0.506406473936,25.4150643156,0.449999988079,0.0,0.439999997616
13.0,27.5,1.4,140.0,49.0,1.13575103428,0.0,-2.67405120309,26.0468983998,-0.289666959847,25.3874160489,0.449999988079,0.0,0.439999997616
14.0,29.0,1.5,230.0,45.0,1.13006924994,0.0,-2.42502082119,26.6249338216,-0.24857224049,25.5707394816,0.449999988079,0.0,0.439999997616
15.0,28.0,1.3,230.0,49.0,1.13324843187,0.0,-2.20707911,26.6013995422,-0.181932611882,25.842830934,0.449999988079,0.0,0.439999997616
16.0,27.0,1.2,230.0,52.0,1.13700406339,0.0,-2.15365167665,26.4466490414,-0.101599136096,25.950353352,0.449999988079,0.0,0.439999997616
17.0,26.0,1.0,230.0,56.0,1.14047461893,0.0,-2.15676021361,26.2403205735,-0.0618190731344,25.9706603004,0.449999988079,0.0,0.439999997616
18.0,25.0,0.8,230.0,60.0,1.14408737929,0.0,-2.18389753476,25.9901496815,-0.0449197249951,25.557419296,0.449999988079,0.0,0.439999997616
19.0,24.0,0.7,230.0,64.0,1.14783261802,0.0,-2.22472867007,25.7452522855,-0.11912198683,25.1335310037,0.449999988079,0.0,0.430000007153
20.0,23.0,0.5,50.0,69.0,1.15137052241,0.0,-2.26814448952,25.4465100972,-0.205396888322,24.9210183435,0.439999997616,0.0,0.430000007153
21.0,22.4,0.5,50.0,71.0,1.15388622415,0.0,-2.32427967298,24.7557553907,-0.254478784081,24.9178436533,0.439999997616,0.0,0.430000007153
22.0,21.8,0.5,50.0,73.0,1.15761377202,0.0,-2.51897037425,24.4321911279,-0.260054774938,24.6155179836,0.439999997616,0.0,0.430000007153
23.0,21.2,0.6,50.0,75.0,1.16019161282,0.0,-2.61678202657,24.0368000497,-0.330455376439,24.452248767,0.439999997616,0.0,0.430000007153
0.0,20.6,0.6,50.0,78.0,1.16369567553,0.0,-2.73854953522,23.736142598,-0.374614342372,24.128930118,0.439999997616,0.0,0.430000007153
1.0,19.9,0.6,50.0,80.0,1.16687601664,0.0,-2.83464831543,23.2902352787,-0.449906826917,23.8180716768,0.439999997616,0.0,0.430000007153
2.0,19.3,0.6,50.0,83.0,1.17047180182,0.0,-2.98889898395,22.9384082998,-0.528075873416,23.5634542871,0.439999997616,0.0,0.430000007153
3.0,18.7,0.7,50.0,85.0,1.17317882712,0.0,-3.11255423416,22.498745258,-0.595064423003,23.4184815718,0.439999997616,0.0,0.430000007153
4.0,18.1,0.7,50.0,88.0,1.17685649709,0.0,-3.27305487537,22.1690865577,-0.642501238594,22.9998799108,0.439999997616,0.0,0.430000007153
5.0,17.5,0.7,50.0,91.0,1.17937958809,0.0,-3.40135933594,21.7597832698,-0.745236239536,22.7112737622,0.439999997616,0.0,0.430000007153
6.0,19.0,1.0,50.0,84.0,1.17182239676,0.0,-3.5513216667,22.7377488631,-0.808523301635,22.6545928272,0.439999997616,0.0,0.430000007153
7.0,20.5,1.2,50.0,79.0,1.16513042579,0.0,-3.26214248158,23.344299556,-0.810204423448,22.1526821586,0.439999997616,0.0,0.439999997616
8.0,22.0,1.5,180.0,73.0,1.15891382483,0.0,-3.05917528089,24.2897229163,-0.894110159706,23.4539430355,0.449999988079,0.0,0.439999997616
9.0,23.5,1.8,180.0,68.0,1.15142069476,0.0,-2.76303972394,25.1205325107,-0.626562954793,24.4186571214,0.449999988079,0.0,0.439999997616
10.0,25.0,2.0,180.0,64.0,1.14494319508,0.0,-2.48174920769,25.997212894,-0.400273142302,25.2350176522,0.449999988079,0.0,0.439999997616
11.0,26.5,2.3,180.0,60.0,1.13746703655,0.0,-2.17697794995,26.3387362798,-0.193264809056,25.728631357,0.449999988079,0.0,0.439999997616
12.0,28.0,2.6,180.0,56.0,1.13134221428,0.0,-2.01967520476,26.7987773033,-0.0455197954558,25.9003254241,0.449999988079,0.0,0.439999997616
13.0,29.5,2.8,180.0,52.0,1.1254206008,0.0,-1.82640494413,27.1824395367,0.0174887016087,26.6058754446,0.449999988079,0.0,0.439999997616
14.0,31.0,3.1,140.0,49.0,1.11806409533,0.0,-1.67948346056,28.968518769,0.181442566162,31.6986439868,0.449999988079,0.0,0.439999997616
15.0,30.0,3.4,140.0,51.0,1.12333304745,0.0,-1.07779936945,29.0553307808,1.28496240998,31.6172969635,0.449999988079,0.0,0.439999997616
16.0,29.0,3.8,140.0,52.0,1.12798684554,0.0,-0.981711679025,29.2134167592,1.33408478075,31.2945032973,0.449999988079,0.0,0.430000007153
17.0,28.0,4.1,140.0,55.0,1.13177981751,0.0,-0.899092802939,28.9125278215,1.28750343842,29.9235484394,0.449999988079,0.0,0.430000007153
18.0,27.0,4.4,140.0,57.0,1.13609434882,0.0,-0.962479434178,28.3076933491,1.02412425366,28.6414244523,0.449999988079,0.0,0.430000007153
19.0,26.0,4.8,140.0,59.0,1.14162894679,0.0,-1.12594145138,27.6056828094,0.75925517857,26.9941878257,0.449999988079,0.0,0.430000007153
20.0,25.0,5.1,90.0,61.0,1.1460543035,0.0,-1.32717131876,27.1048923061,0.415299613478,25.8206193135,0.439999997616,0.0,0.430000007153
21.0,24.2,4.8,90.0,63.0,1.14948780551,0.0,-1.47905881513,26.4086098645,0.157409895362,25.1594357401,0.439999997616,0.0,0.430000007153
22.0,23.3,4.6,90.0,65.0,1.15465970037,0.0,-1.68356339616,25.7151638048,0.0063191329961,24.2440014714,0.439999997616,0.0,0.430000007153
23.0,22.5,4.3,90.0,68.0,1.15785723945,0.0,-1.90606559271,25.6037016329,-0.208059826428,23.914754281,0.439999997616,0.0,0.430000007153
0.0,22.2,3.8,90.0,72.0,1.15462636059,0.0,-1.95215783839,25.3559899043,-0.304211828172,23.4971186735,0.449999988079,0.0,0.430000007153
1.0,22.0,3.4,90.0,76.0,1.15561611471,0.0,-2.02099880395,25.4784247337,-0.392369836746,23.495548955,0.449999988079,0.0,0.430000007153
2.0,21.7,2.9,90.0,81.0,1.15568879407,0.0,-1.9806436029,25.5704163598,-0.407569903137,23.3996893276,0.439999997616,0.0,0.430000007153
3.0,21.4,2.4,90.0,85.0,1.15611223323,0.0,-1.92719027534,25.6378494744,-0.419088181697,23.5771592424,0.439999997616,0.0,0.430000007153
4.0,21.0,2.6,90.0,88.0,1.158607397,0.0,-1.88267766456,25.4551688194,-0.392408702442,23.2613922915,0.439999997616,0.0,0.430000007153
5.0,20.6,2.9,90.0,91.0,1.15995300826,0.0,-1.93467041316,25.1244023787,-0.464797447484,22.7762390162,0.439999997616,0.0,0.430000007153
6.0,21.2,2.6,90.0,89.0,1.15601802743,0.0,-2.03569351979,25.393025114,-0.564017844504,23.8994465376,0.439999997616,0.0,0.430000007153
7.0,21.8,2.4,90.0,87.0,1.15329280826,0.0,-1.95632548056,25.222242592,-0.353360825218,22.922005434,0.439999997616,0.0,0.430000007153
8.0,22.4,2.1,140.0,85.0,1.1505923425,0.0,-1.97206669648,25.5894696494,-0.510157497412,23.7337963922,0.449999988079,0.0,0.430000007153
9.0,23.0,1.8,140.0,83.0,1.14791782887,0.0,-1.85451784709,25.8296567063,-0.351230101352,24.357280667,0.449999988079,0.0,0.430000007153
10.0,23.6,1.6,140.0,82.0,1.14492835051,0.0,-1.76486345247,26.0297940105,-0.203265016072,24.9319091497,0.449999988079,0.0,0.430000007153
11.0,24.2,1.3,140.0,80.0,1.14229769046,0.0,-1.68392886747,26.2957354566,-0.064587467492,25.2260681107,0.449999988079,0.0,0.430000007153
12.0,24.8,1.0,140.0,78.0,1.13969654122,0.0,-1.57744304562,26.6464221471,0.025561091076,25.5402970519,0.449999988079,0.0,0.430000007153
13.0,25.4,0.8,140.0,77.0,1.13674751878,0.0,-1.44647744452,27.0634891327,0.123703032975,25.9515739159,0.449999988079,0.0,0.430000007153
14.0,26.0,0.5,140.0,75.0,1.13303198513,0.0,-1.29641613809,27.3219581326,0.227795946998,26.4314438952,0.449999988079,0.0,0.430000007153
15.0,25.6,0.6,140.0,77.0,1.13447195553,0.0,-1.19260659225,27.2777227724,0.333109378668,26.1794386063,0.449999988079,0.0,0.430000007153
16.0,25.3,0.7,140.0,80.0,1.13500388809,0.0,-1.1772108942,27.0846704494,0.298182813527,26.1665906648,0.449999988079,0.0,0.430000007153
17.0,24.9,0.7,140.0,82.0,1.13650101661,0.0,-1.20274953681,26.8436927727,0.32165410079,25.8376196685,0.449999988079,0.0,0.430000007153
18.0,24.5,0.8,140.0,85.0,1.13766227319,0.0,-1.25624281907,26.625267086,0.272284072555,25.6629969228,0.449999988079,0.0,0.430000007153
19.0,24.2,0.9,140.0,87.0,1.13747597501,0.0,-1.30004322366,26.7782949242,0.235804388922,25.8187706313,0.439999997616,0.0,0.430000007153
20.0,23.8,1.0,140.0,90.0,1.13870217507,0.0,-1.23733342584,26.7222320878,0.256283885868,25.7751501221,0.439999997616,0.0,0.430000007153
21.0,23.8,1.1,140.0,89.0,1.13904825461,0.0,-1.22927972656,26.5477241345,0.241763002997,26.0751066473,0.439999997616,0.0,0.430000007153
22.0,23.8,1.2,140.0,87.0,1.13974041369,0.0,-1.28177499125,26.5625708614,0.297913172543,26.1125048572,0.439999997616,0.0,0.430000007153
23.0,23.8,1.3,140.0,85.0,1.14043257276,0.0,-1.2918961615,26.6622458549,0.294389986649,26.1422474289,0.439999997616,0.0,0.430000007153
0.0,23.8,1.4,140.0,84.0,1.1407786523,0.0,-1.27999736398,26.7809828983,0.27689435859,26.204765147,0.449999988079,0.0,0.430000007153
1.0,23.8,1.4,140.0,82.0,1.14147081138,0.0,-1.2527723327,26.731227262,0.272316593787,26.2230567539,0.449999988079,0.0,0.430000007153
2.0,23.8,1.5,140.0,80.0,1.14216297046,0.0,-1.28239807485,26.7352867078,0.268227644555,26.18272786,0.449999988079,0.0,0.430000007153
3.0,23.8,1.6,140.0,79.0,1.14250904999,0.0,-1.30150209395,26.926459795,0.246834496127,26.2154293765,0.449999988079,0.0,0.430000007153
4.0,23.8,1.7,140.0,77.0,1.14320120907,0.0,-1.25586449781,27.1747800843,0.233250210619,26.1202577027,0.449999988079,0.0,0.430000007153
5.0,23.8,1.8,140.0,76.0,1.14354728861,0.0,-1.20720934872,27.1847535528,0.1700886426,25.5720283966,0.449999988079,0.0,0.430000007153
6.0,24.3,1.9,140.0,73.0,1.14189280745,0.0,-1.22154312286,26.8951487747,0.0808799944783,25.2973956202,0.449999988079,0.0,0.430000007153
7.0,24.9,2.0,140.0,69.0,1.14011975789,0.0,-1.3234870066,27.1723905745,0.0289804733607,25.4968281308,0.449999988079,0.0,0.430000007153
8.0,25.4,2.1,320.0,66.0,1.13857999632,0.0,-1.23293046472,26.9922152283,0.102071850096,26.0405218262,0.449999988079,0.0,0.439999997616
9.0,25.9,2.2,320.0,63.0,1.13709359254,0.0,-1.28197932973,27.1941451993,0.225773665771,26.1304822802,0.449999988079,0.0,0.439999997616
10.0,26.5,2.3,320.0,60.0,1.13397864621,0.0,-1.21921142371,27.2023164052,0.25659918238,26.7144201796,0.449999988079,0.0,0.439999997616
11.0,27.0,2.3,320.0,58.0,1.13219765468,0.0,-1.20745769652,27.5913793571,0.389538774692,26.9177319039,0.449999988079,0.0,0.439999997616
12.0,27.5,2.4,320.0,55.0,1.13087885593,0.0,-1.07320048538,27.9906238141,0.455600637991,27.145975179,0.449999988079,0.0,0.439999997616
13.0,28.1,2.5,320.0,52.0,1.12911373556,0.0,-0.951115153721,28.4458010978,0.515136782524,27.296272375,0.449999988079,0.0,0.439999997616
14.0,28.6,2.6,270.0,50.0,1.12747370195,0.0,-0.800998809715,28.9137605536,0.556338785157,27.6660400151,0.449999988079,0.0,0.439999997616
15.0,27.9,2.4,270.0,53.0,1.12969395045,0.0,-0.640139297794,28.5867003236,0.641928690493,27.8769586813,0.449999988079,0.0,0.430000007153
16.0,27.3,2.2,270.0,55.0,1.13190436517,0.0,-0.704371475593,28.3709587645,0.69916922027,27.6135490506,0.449999988079,0.0,0.430000007153
17.0,26.6,2.0,270.0,57.0,1.13467266394,0.0,-0.74532094035,27.9901799638,0.656665247471,27.4574570321,0.449999988079,0.0,0.430000007153
18.0,25.9,1.9,270.0,60.0,1.13709707142,0.0,-0.851418209781,27.9751954128,0.61878068229,26.5364162846,0.449999988079,0.0,0.430000007153
19.0,25.3,1.7,270.0,63.0,1.13907226856,0.0,-0.840944134876,27.7472837865,0.435088038127,26.4943131479,0.449999988079,0.0,0.430000007153
20.0,24.6,1.5,320.0,66.0,1.14163636434,0.0,-0.883938178363,27.2647841474,0.420918152328,26.1664108142,0.449999988079,0.0,0.430000007153
21.0,24.1,1.7,320.0,70.0,1.14285510263,0.0,-1.01166501574,26.6539369704,0.345051505415,26.4359561478,0.449999988079,0.0,0.430000007153
22.0,23.5,2.0,320.0,75.0,1.14551544466,0.0,-1.17746330435,26.2016838746,0.398680682858,26.163624841,0.449999988079,0.0,0.430000007153
23.0,23.0,2.2,320.0,81.0,1.14622606961,0.0,-1.29852254938,25.8318312219,0.342808421688,25.906384938,0.449999988079,0.0,0.430000007153
0.0,22.4,2.4,320.0,86.0,1.14555714567,0.0,-1.38836241287,25.3608784632,0.292670116117,25.3801864024,0.449999988079,0.0,0.430000007153
1.0,22.1,2.7,320.0,85.0,1.14871305382,0.0,-1.52459149286,25.0015889957,0.202403767416,25.0791492187,0.449999988079,0.0,0.430000007153
2.0,21.7,2.9,320.0,85.0,1.15091615929,0.0,-1.68066232073,24.6330468999,0.118165597759,24.7815112738,0.449999988079,0.0,0.430000007153
